raman shift,intensity
400.353,739.9450398807676
401.78,1162.3780165502685
403.206,698.6474796987386
404.632,1458.7507755209517
406.058,1239.6852502116162
407.483,770.4482499655278
408.908,98.0371209773948
410.333,1254.4492094419402
411.757,287.6818615539378
413.181,1636.7324235081178
414.605,1515.5982414992177
416.028,807.2766617219822
417.45,-1232.2349672778437
418.873,785.0608549352473
420.295,1219.1618706734153
421.716,-935.9341561723704
423.138,-1095.2294617110747
424.558,335.2737179482647
425.979,766.5731466966317
427.399,-1305.333411574975
428.818,-273.44819297554204
430.238,547.2265663858998
431.657,-327.3113695996435
433.075,-605.0642370411952
434.493,-28.03427204774198
435.911,-415.2237107283072
437.329,-1067.6346971271705
438.746,-30.268690441851504
440.162,-188.126841177007
441.578,711.7897016565621
442.994,820.4797890480259
444.41,-244.0577280134603
445.825,328.1760014613101
447.24,1381.1798284614852
448.654,101.95260397627135
450.068,-1567.5068210051904
451.482,-1676.199595493701
452.895,585.873131499895
454.308,-518.2897890351887
455.72,934.3104992681983
457.132,59.6733778326161
458.544,-815.2008136338845
459.955,-1210.311633439771
461.366,-1217.6586398934742
462.777,-396.2413913034543
464.187,631.9405540217776
465.597,235.88763777379063
467.006,-555.39969835589
468.415,-1347.9210126757316
469.824,-1079.6758634941943
471.232,76.33619088025443
472.64,1180.1155921391546
474.048,423.66278197402426
475.455,318.9782665014791
476.862,1449.0631173237489
478.268,814.9186992335381
479.675,696.5463795076648
481.08,-381.05247457704536
482.486,534.1235042562766
483.891,37.07568328437628
485.295,708.8054297841663
486.699,-186.68588896758592
488.103,1499.6030943060032
489.507,849.6737468817009
490.91,1512.5274360364056
492.312,1061.1655290468843
493.715,1126.5893940164824
495.117,983.8005332536777
496.518,-246.19926950544323
497.919,-269.4081950879481
499.32,71.17557567903714
500.721,-90.44613803154061
502.121,-903.2715170468364
503.52,-1031.2987421939106
504.92,266.47400570011814
506.319,782.0485458081603
507.717,-35.57330269688828
509.116,-971.3897206421243
510.513,-67.39888885463006
511.911,781.4010118384685
513.308,-270.9881735998133
514.705,-79.56433111742808
516.101,168.67481338807556
517.497,236.73153613899194
518.893,-497.3918866424792
520.288,55.30682126591273
521.683,1223.8299360863311
523.077,1390.1797340410485
524.471,1618.358491352279
525.865,1719.3684842422372
527.258,2114.211988933159
528.652,2111.8912816472584
530.044,2089.408638606772
531.436,2897.76633602161
532.828,2680.9666462456007
534.22,1811.011832314587
535.611,611.904155884913
537.002,2138.6458786129224
538.392,2135.2392621549734
539.782,1882.6865681674317
541.172,1064.9900583066046
542.561,1207.1519942288796
543.95,1258.1746375906005
545.339,1510.0602500481036
546.727,2079.8110932577474
548.115,575.4294288758829
549.502,94.91751855883922
550.889,1805.2776220102169
552.276,9.511974484004895
553.662,171.62279458814737
555.048,666.6123006112102
556.434,843.4827108417012
557.819,-458.76375643177744
559.204,852.8751170793184
560.589,-594.5984503364525
561.973,326.8177596094756
563.357,85.12596520563966
564.74,329.32838474059827
566.123,318.42723650289554
567.506,993.4247387811411
568.888,158.32310990209226
570.27,-187.87540168374107
571.652,41.83153661745746
573.033,789.4462719774601
574.414,1226.971151568061
575.794,-491.59147743894573
577.174,-304.23926787180244
578.554,-530.9698725586786
579.933,-347.7809443278238
581.313,389.3298639925415
582.691,452.36489957426966
584.069,624.326509589082
585.447,760.2170412087871
586.825,1010.0388416051792
588.202,838.7942658592219
589.579,140.48578931170778
590.955,471.1159808686789
592.331,-457.31258809915744
593.707,-319.79734622105025
595.083,78.66427787372959
596.458,-116.92514444411063
597.832,1170.4369581961728
599.207,1194.7531571652871
600.58,751.0260238339688
601.954,488.25812957293965
603.327,-278.54795424707845
604.7,-72.38965625535639
606.072,991.7355949170305
607.445,2085.8303643898616
608.816,919.8971970426428
610.188,1894.9386336644457
611.559,1846.9572150444146
612.929,2879.9554819715922
614.3,3117.9359752351083
615.669,2444.9012356240273
617.039,3751.8538039274863
618.408,3930.796220934557
619.777,4770.731027434325
621.145,5447.660764215907
622.514,6291.587972068388
623.881,6922.51519178084
625.249,6784.444955383129
626.616,5603.379630709518
627.982,6363.321439768864
629.349,6754.27259950099
630.715,7208.235326845679
632.08,7798.211838742791
633.445,7676.204352132125
634.81,8322.215083953524
636.175,9288.24625114679
637.539,8411.300070651756
638.903,10773.378759408253
640.266,11232.484534356052
641.629,11289.619612435039
642.992,12563.786210584221
644.354,11922.986444872811
645.716,12841.222051606746
647.078,12453.494677735573
648.439,13356.805970208756
649.8,13103.157575975798
651.16,12952.55114198623
652.52,12627.98831518957
653.88,12697.470742535283
655.24,11821.0000709729
656.599,10958.577947451959
657.958,11937.20601892189
659.316,11094.885932332276
660.674,10909.61933463256
662.032,9570.407862134118
663.389,9401.252900567823
664.746,8655.155581760919
666.102,8922.117026237735
667.459,8699.138354522562
668.814,7949.22068713975
670.17,6690.365144613621
671.525,5372.572847468487
672.88,5998.844916228671
674.234,6113.182471418499
675.588,5152.586633562307
676.942,5019.05852318438
678.296,4813.59926080906
679.649,5464.2099669606905
681.001,4667.8917147678585
682.354,4537.6453697238685
683.705,4389.4717404784315
685.057,3449.3716356797668
686.408,3619.3458639761375
687.759,3692.395234015763
689.11,4543.520554446943
690.46,4259.72263391786
691.81,4435.002281076806
693.159,4135.360304572023
694.508,5480.7975130517225
695.857,5236.314715164182
697.205,4791.912719557622
698.553,5786.592330096304
699.901,6461.354205553333
701.248,6517.198836961477
702.595,6289.126706009563
703.942,7035.138294386525
705.288,6880.234083781172
706.634,6681.414555882417
707.98,7875.68019237915
709.325,8424.031474960197
710.67,7781.4688853144835
712.014,8869.992905130857
713.358,9167.604016098216
714.702,9405.302699905413
716.045,9924.089438241324
717.389,9905.96465566205
718.731,9862.928485232398
720.074,10398.980967294541
721.416,9411.12214215177
722.757,9283.352050107402
724.099,9414.670731464845
725.44,7155.078226527337
726.78,7805.574575598235
728.12,7845.159818980901
729.46,7958.8339969786175
730.8,6885.597149894718
732.139,5756.449318032566
733.478,4927.3905416954585
734.816,5739.420858045749
736.154,6233.540177650655
737.492,5096.748243981048
738.83,3018.044789070329
740.167,2745.4295449519486
741.504,2955.902243659344
742.84,3127.462617225916
744.176,3236.1103976851227
745.512,2738.845317070365
746.847,2840.66710741508
748.182,2659.575500752697
749.517,1569.57022911666
750.851,1619.651024540377
752.185,1740.8176190572703
753.518,1242.069731171854
754.852,662.4069988303381
756.184,2286.829030282992
757.517,893.3354337333658
758.849,942.9258173849958
760.181,1624.5997894414177
761.513,1722.3569581061456
762.844,1621.19693158273
764.174,1564.119318074714
765.505,1457.1237257856483
766.835,551.2097629190248
768.165,934.3770376784232
769.494,1022.6251582673503
770.823,1335.953731983027
772.152,2032.3623154973902
773.48,1312.8503890991342
774.808,1834.4174267442795
776.136,2558.0629023887814
777.463,3457.786289988653
778.79,3180.5870634998937
780.117,4586.464696878473
781.443,4240.418664080411
782.769,6071.448439061685
784.094,6429.5534957782875
785.42,6590.733308186223
786.744,6795.98735024147
788.069,5774.315095900034
789.393,6502.715995806495
790.717,6163.189338033102
792.04,5747.734341421434
793.364,6771.350224557151
794.686,7061.036206026001
796.009,5119.791504413726
797.331,5520.615338306001
798.653,5416.506926288552
799.974,4099.465486947112
